,x,y,z,momentumx,density,pressure
0,-23.625,-2.625,0.5,21.168378620115746,42.551004394648444,-9567.6787203835
1,-22.875,-2.625,0.5,21.62481791379532,43.295311649971566,-9535.644125985793
2,-22.125,-2.625,0.5,22.458315817261266,44.05932538954252,-9507.249067144789
3,-21.375,-2.625,0.5,23.663217276124964,44.644743493621554,-9484.351611772721
4,-20.625,-2.625,0.5,25.282244687927324,44.999946490198916,-9468.141001421012
5,-19.875,-2.625,0.5,27.382028517952918,45.17267177468261,-9458.99721837639
6,-19.125,-2.625,0.5,30.016152992882116,45.225793798595774,-9456.530503353177
7,-18.375,-2.625,0.5,33.21066931478227,45.202617183031464,-9459.86759598258
18,-17.8125,-2.0625,0.5,33.93441011872621,45.213523796255465,-9460.072606898366
19,-17.4375,-2.0625,0.5,36.09909622251033,45.173536019355026,-9464.262199456452
20,-17.0625,-2.0625,0.5,38.50266941877481,45.124328187505455,-9469.396838730194
21,-16.6875,-2.0625,0.5,41.16516479687602,45.06729824106772,-9475.298943849853
26,-16.40625,-1.96875,0.5,42.33920458967348,45.05292247474842,-9477.263192497387
27,-16.21875,-1.96875,0.5,44.00885694412456,45.01944557990056,-9480.764935108604
28,-16.03125,-1.96875,0.5,45.86975803628103,44.98013012446149,-9484.835171422468
29,-15.84375,-1.96875,0.5,47.92920772866049,44.93627577503716,-9489.342147743735
32,-15.703125,-1.921875,0.5,48.687398437552815,44.9191729801165,-9491.365691845305
33,-15.609375,-1.921875,0.5,49.8993364446102,44.891959951145246,-9494.192122113187
34,-15.515625,-1.921875,0.5,51.21900773703699,44.86111547434914,-9497.337890978219
35,-15.421875,-1.921875,0.5,52.643983330819104,44.82663572762292,-9500.784121527338
36,-15.328125,-1.921875,0.5,54.176697254369195,44.78808555480008,-9504.54738729806
37,-15.234375,-1.921875,0.5,55.82090993979732,44.74486349786735,-9508.646894997628
38,-15.140625,-1.921875,0.5,57.58025409864268,44.69614572455921,-9513.100479723771
39,-15.046875,-1.921875,0.5,59.45650391927871,44.640782181781795,-9517.92255497669
40,-14.953125,-1.828125,0.5,57.716774413054786,44.61832462243905,-9517.968980815034
41,-14.859375,-1.828125,0.5,59.50499032245246,44.53997815663023,-9522.962885826033
42,-14.765625,-1.828125,0.5,61.31482392812034,44.44187968640289,-9528.230100513221
43,-14.671875,-1.828125,0.5,63.06395730247418,44.31549764951125,-9533.834798719181
44,-14.578125,-1.828125,0.5,64.6179274317332,44.150709046241545,-9539.942996042855
45,-14.484375,-1.828125,0.5,65.78588380123962,43.93934277480815,-9546.801546031706
46,-14.390625,-1.828125,0.5,66.34662355664635,43.680312965237654,-9554.567586839672
47,-14.296875,-1.828125,0.5,66.11870465812324,43.382606496583136,-9563.082519856054
48,-14.203125,-1.734375,0.5,52.86858306931613,42.58511471021585,-9561.61989800137
49,-14.109375,-1.734375,0.5,49.33075272210451,42.16501485127048,-9572.039088232337
50,-14.015625,-1.734375,0.5,45.538165580911695,41.804408103901125,-9580.18938406301
51,-13.921875,-1.734375,0.5,41.894314003499844,41.51974802656437,-9585.388479980462
52,-13.828125,-1.734375,0.5,38.726652332931714,41.325539144684775,-9584.929164723613
53,-13.734375,-1.734375,0.5,36.18400871759071,41.20848922447983,-9580.76301773159
54,-13.640625,-1.734375,0.5,34.424588131200274,41.179878888318314,-9569.412674080248
55,-13.546875,-1.734375,0.5,33.584388308733935,41.22558013221199,-9555.440231201097
56,-13.453125,-1.640625,0.5,18.085361200273557,40.78458300172667,-9490.926895134535
57,-13.359375,-1.640625,0.5,19.427573764088322,40.986363517376354,-9474.864177595256
58,-13.265625,-1.640625,0.5,21.631797373875784,41.25120385975096,-9481.580908844167
59,-13.171875,-1.640625,0.5,24.284433636964344,41.56821581089397,-9507.738608111651
60,-13.078125,-1.640625,0.5,26.805599547970257,41.91580937636121,-9541.91943136322
61,-12.984375,-1.640625,0.5,28.865019504071743,42.234990885068505,-9577.812627544976
62,-12.890625,-1.640625,0.5,30.532932972373576,42.4862795432357,-9609.032960038021
63,-12.796875,-1.640625,0.5,32.068606072162446,42.67696700600942,-9631.211980563941
64,-12.703125,-1.546875,0.5,24.060885697545164,42.82407538866072,-9632.790596639394
65,-12.609375,-1.546875,0.5,25.919671760430663,42.964863478169725,-9643.267275818715
66,-12.515625,-1.546875,0.5,27.521554914019454,43.08463399252674,-9646.875695963749
67,-12.421875,-1.546875,0.5,28.814362788730435,43.18640660316818,-9646.70212344254
68,-12.328125,-1.546875,0.5,29.814352176394532,43.27169654643755,-9644.71065454697
69,-12.234375,-1.546875,0.5,30.552369812296806,43.342837637281775,-9641.987239148511
70,-12.140625,-1.546875,0.5,31.05440051686993,43.402229137039676,-9639.109198698676
71,-12.046875,-1.546875,0.5,31.3373292278641,43.45173460166573,-9636.387238748031
72,-11.953125,-1.453125,0.5,26.209482883223295,43.50609878517346,-9633.73806889924
73,-11.859375,-1.453125,0.5,26.41180043637992,43.53915913914618,-9631.786076919288
74,-11.765625,-1.453125,0.5,26.39114449233853,43.56545123365131,-9630.20402971001
75,-11.671875,-1.453125,0.5,26.15432689342103,43.58590769303382,-9628.969598622014
76,-11.578125,-1.453125,0.5,25.71332679858622,43.60139812213511,-9628.03126000334
77,-11.484375,-1.453125,0.5,25.08457883889384,43.61262770536914,-9627.321580990128
78,-11.390625,-1.453125,0.5,24.286920144130463,43.620054421518354,-9626.762650473123
79,-11.296875,-1.453125,0.5,23.339081603602995,43.623796804597774,-9626.26295011909
80,-11.203125,-1.359375,0.5,19.35755221745508,43.62649062810873,-9625.548866386127
81,-11.109375,-1.359375,0.5,18.339402539274243,43.61901646565169,-9624.635927600599
82,-11.015625,-1.359375,0.5,17.1891945680716,43.60145087713842,-9623.201063442044
83,-10.921875,-1.359375,0.5,15.8934014211276,43.564328918430704,-9620.920571171673
84,-10.828125,-1.359375,0.5,14.406888327996159,43.48695941171284,-9617.55101551209
85,-10.734375,-1.359375,0.5,12.634163805803047,43.327466488575894,-9613.458931839472
86,-10.640625,-1.359375,0.5,10.453552906630001,43.01697776527399,-9610.688776917385
87,-10.546875,-1.359375,0.5,7.91226012603502,42.49172604513076,-9613.46897707311
88,-10.453125,-1.265625,0.5,4.27903994609106,41.62867341661988,-9624.783955319148
89,-10.359375,-1.265625,0.5,2.689332626436047,40.92334878258908,-9643.756782809676
90,-10.265625,-1.265625,0.5,1.6029204146480056,40.414957692990455,-9671.627827174681
91,-10.171875,-1.265625,0.5,0.7859450561996582,40.11788315395223,-9738.83016404052
92,-10.078125,-1.265625,0.5,0.0,40.0,-10000.0
93,-9.984375,-1.265625,0.5,0.0,40.0,-10000.0
94,-9.890625,-1.265625,0.5,0.0,40.0,-10000.0
95,-9.796875,-1.265625,0.5,0.0,40.0,-10000.0
96,-9.703125,-1.171875,0.5,0.0,40.0,-10000.0
97,-9.609375,-1.171875,0.5,0.0,40.0,-10000.0
98,-9.515625,-1.171875,0.5,0.0,40.0,-10000.0
99,-9.421875,-1.171875,0.5,0.0,40.0,-10000.0
100,-9.328125,-1.171875,0.5,0.0,40.0,-10000.0
101,-9.234375,-1.171875,0.5,0.0,40.0,-10000.0
102,-9.140625,-1.171875,0.5,0.6551988023336535,40.118332711214734,-9779.213650458414
103,-9.046875,-1.171875,0.5,2.098005976209676,40.33529994390863,-9769.588450275904
104,-8.953125,-1.078125,0.5,2.846958030782515,40.5060706209181,-9784.860379692118
105,-8.859375,-1.078125,0.5,4.311323594151901,40.78537232892086,-9808.358544608816
106,-8.765625,-1.078125,0.5,5.690519213463602,40.98890232274274,-9831.800590575
107,-8.671875,-1.078125,0.5,7.075062803892054,41.09338290263813,-9850.556078719444
108,-8.578125,-1.078125,0.5,8.419747468231792,41.13677385572698,-9863.159004269555
109,-8.484375,-1.078125,0.5,9.603473395934927,41.15334079122413,-9870.817930024767
110,-8.390625,-1.078125,0.5,10.57622023459766,41.15704021987487,-9875.513284407614
111,-8.296875,-1.078125,0.5,11.33788236838004,41.15258203951676,-9878.71140890041
112,-8.203125,-0.984375,0.5,10.752911003298783,41.12060198355152,-9883.209173723433
113,-8.109375,-0.984375,0.5,11.13411253277912,41.108810340514516,-9885.351101179445
114,-8.015625,-0.984375,0.5,11.348361024252087,41.09479489525461,-9887.275847737676
115,-7.921875,-0.984375,0.5,11.408760894378451,41.07976667778647,-9889.060891142135
116,-7.828125,-0.984375,0.5,11.33026943159628,41.06455683192482,-9890.731084451214
117,-7.734375,-0.984375,0.5,11.12924131685542,41.04972169606062,-9892.290314053223
118,-7.640625,-0.984375,0.5,10.822761155257766,41.035634821933385,-9893.734402771759
119,-7.546875,-0.984375,0.5,10.42787010953296,41.022525285261395,-9895.05946067009
120,-7.453125,-0.890625,0.5,9.20369590826541,40.99853812865295,-9897.587597610565
121,-7.359375,-0.890625,0.5,8.73105888163442,40.98846783462256,-9898.594888744808
122,-7.265625,-0.890625,0.5,8.214735507816133,40.979542521779344,-9899.480138244904
123,-7.171875,-0.890625,0.5,7.66651076802001,40.97177059199877,-9900.241414995911
124,-7.078125,-0.890625,0.5,7.0971182169258205,40.96512774455097,-9900.877137739666
125,-6.984375,-0.890625,0.5,6.516295147257864,40.95955946333823,-9901.38531460251
126,-6.890625,-0.890625,0.5,5.932940190147575,40.95498063267747,-9901.762441209507
127,-6.796875,-0.890625,0.5,5.355380672462401,40.95126993278624,-9902.002065437633
128,-6.703125,-0.796875,0.5,4.340665371603945,40.937485338711845,-9902.951191791752
129,-6.609375,-0.796875,0.5,3.8095754029024214,40.93430126505191,-9902.762637837917
130,-6.515625,-0.796875,0.5,3.303990644888051,40.93047334793562,-9902.351138361533
131,-6.421875,-0.796875,0.5,2.832448375402474,40.924711056911555,-9901.691466633993
132,-6.328125,-0.796875,0.5,2.400251574428311,40.91473899951555,-9900.780341500862
133,-6.234375,-0.796875,0.5,2.0055831875329444,40.89683149009462,-9899.653571499475
134,-6.140625,-0.796875,0.5,1.637560629922571,40.86540841782238,-9898.398379584576
135,-6.046875,-0.796875,0.5,1.2802222114026969,40.81275129906005,-9897.18612934495
136,-5.953125,-0.703125,0.5,0.4861812996383673,40.6184135459727,-9897.547686695178
137,-5.859375,-0.703125,0.5,0.2500364848001346,40.481476223744195,-9898.442254410389
138,-5.765625,-0.703125,0.5,0.10767114814393206,40.33192786091276,-9900.618707234098
139,-5.671875,-0.703125,0.5,0.06067605333996694,40.19492707286002,-9904.332988014256
140,-5.578125,-0.703125,0.5,0.04607917415326011,40.08808649349948,-9914.065789045728
141,-5.484375,-0.703125,0.5,0.05256523769936655,40.02196963715314,-9935.478299646726
142,-5.390625,-0.703125,0.5,0.0,40.0,-10000.0
143,-5.296875,-0.703125,0.5,0.0,40.0,-10000.0
144,-5.203125,-0.609375,0.5,0.0,40.0,-10000.0
145,-5.109375,-0.609375,0.5,0.0,40.0,-10000.0
146,-5.015625,-0.609375,0.5,0.0,40.0,-10000.0
147,-4.921875,-0.609375,0.5,0.0,40.0,-10000.0
148,-4.828125,-0.609375,0.5,0.0,40.0,-10000.0
149,-4.734375,-0.609375,0.5,0.0,40.0,-10000.0
150,-4.640625,-0.609375,0.5,0.0,40.0,-10000.0
151,-4.546875,-0.609375,0.5,0.0,40.0,-10000.0
152,-4.453125,-0.515625,0.5,0.0,40.0,-10000.0
153,-4.359375,-0.515625,0.5,0.0,40.0,-10000.0
154,-4.265625,-0.515625,0.5,0.0,40.0,-10000.0
155,-4.171875,-0.515625,0.5,0.0,40.0,-10000.0
156,-4.078125,-0.515625,0.5,0.0,40.0,-10000.0
157,-3.984375,-0.515625,0.5,-0.00036252131326873184,39.983344171515704,-9999.829840991997
158,-3.890625,-0.515625,0.5,-0.0006032632810138268,39.98267073221689,-9999.800659715
159,-3.796875,-0.515625,0.5,-0.0009729683083052295,39.982152447111865,-9999.797386683706
160,-3.703125,-0.421875,0.5,-0.0012758299993985342,39.9816382061284,-9999.800191966882
161,-3.609375,-0.421875,0.5,-0.0017347335404852904,39.98156635802943,-9999.806506657014
162,-3.515625,-0.421875,0.5,-0.0020535306369434455,39.98157089507911,-9999.813443271769
163,-3.421875,-0.421875,0.5,-0.0021532746935095507,39.981592403292616,-9999.819646125397
164,-3.328125,-0.421875,0.5,-0.0020888538572159197,39.98161235088705,-9999.824324781815
165,-3.234375,-0.421875,0.5,-0.0019376370914981349,39.98162735252565,-9999.827512195177
166,-3.140625,-0.421875,0.5,-0.0017487619118156364,39.98163728639045,-9999.829599694047
167,-3.046875,-0.421875,0.5,-0.001547882506155318,39.98164274655617,-9999.830975817802
168,-2.953125,-0.328125,0.5,-0.0014175520422864915,39.98164358430854,-9999.831569302069
169,-2.859375,-0.328125,0.5,-0.0012266195280515053,39.98164414081749,-9999.832296181008
170,-2.765625,-0.328125,0.5,-0.0010431253392761174,39.98164148492403,-9999.83277454178
171,-2.671875,-0.328125,0.5,-0.0008662796172952516,39.98163621016587,-9999.83305734827
172,-2.578125,-0.328125,0.5,-0.0006923519496975611,39.98162837023787,-9999.833164183201
173,-2.484375,-0.328125,0.5,-0.0005156530111404204,39.981617530537655,-9999.83309947256
174,-2.390625,-0.328125,0.5,-0.0003298466490747144,39.981602844918974,-9999.832862909814
175,-2.296875,-0.328125,0.5,-0.00012915221241112073,39.9815832013436,-9999.8324537621
176,-2.203125,-0.234375,0.5,0.00010607805292905182,39.98150744233885,-9999.830443010436
177,-2.109375,-0.234375,0.5,0.00034869725841084386,39.981449540423924,-9999.82933740282
178,-2.015625,-0.234375,0.5,0.000603258137483373,39.981376840010675,-9999.828069963884
179,-1.921875,-0.234375,0.5,0.0008627177695782255,39.981289839872524,-9999.826707480088
180,-1.828125,-0.234375,0.5,0.0011202459117236792,39.98119123375291,-9999.825310978464
181,-1.734375,-0.234375,0.5,0.0013702701640256225,39.981085486880104,-9999.823975138976
182,-1.640625,-0.234375,0.5,0.001606725047199275,39.98097855430466,-9999.82280570811
183,-1.546875,-0.234375,0.5,0.0018247286567638233,39.98087778767046,-9999.82187236189
184,-1.453125,-0.140625,0.5,0.001748721621979552,39.98022956696015,-9999.81514270672
185,-1.359375,-0.140625,0.5,0.0018830839884020842,39.98015700585716,-9999.814891782698
186,-1.265625,-0.140625,0.5,0.001996346662799394,39.980148017601195,-9999.815217056432
187,-1.171875,-0.140625,0.5,0.0020830266867863417,39.98020478040489,-9999.816120440586
188,-1.078125,-0.140625,0.5,0.002135585909065495,39.98031872969981,-9999.81741661234
189,-0.984375,-0.140625,0.5,0.002152135403109216,39.98047236265785,-9999.818839276359
190,-0.890625,-0.140625,0.5,0.0021364858390005574,39.980643976747906,-9999.820142190738
191,-0.796875,-0.140625,0.5,0.002093772341160054,39.98081515674093,-9999.821173231698
192,-0.703125,-0.046875,0.5,0.001592969163136083,39.98091592534352,-9999.819305763993
193,-0.609375,-0.046875,0.5,0.0015330833421703788,39.98111479946402,-9999.820179229315
194,-0.515625,-0.046875,0.5,0.0014631497324586482,39.98127293921521,-9999.820578373614
195,-0.421875,-0.046875,0.5,0.001386802256346582,39.981397918607506,-9999.820635369524
196,-0.328125,-0.046875,0.5,0.0013076088664528043,39.981496634543525,-9999.820457551063
197,-0.234375,-0.046875,0.5,0.0012301483200050885,39.98157443365795,-9999.820118832351
198,-0.140625,-0.046875,0.5,0.001160264047310511,39.98163516487952,-9999.819668123482
199,-0.046875,-0.046875,0.5,0.0011043411781827546,39.98168150839636,-9999.819140073167
200,0.046875,0.046875,0.5,0.0007970010396337462,39.98173685152023,-9999.817215924026
201,0.140625,0.046875,0.5,0.0007996778274224096,39.98175513532453,-9999.816608805953
202,0.234375,0.046875,0.5,0.0008262421390244365,39.98176269102759,-9999.815983602579
203,0.328125,0.046875,0.5,0.0008776486868507018,39.98175818037692,-9999.815349325198
204,0.421875,0.046875,0.5,0.0009533571225801493,39.981738391575426,-9999.814707887726
205,0.515625,0.046875,0.5,0.0010517123102098869,39.981697668397246,-9999.814055627001
206,0.609375,0.046875,0.5,0.0011703054343890566,39.98162728326352,-9999.813385046005
207,0.703125,0.046875,0.5,0.0013062944049389597,39.98151506296961,-9999.812686996653
208,0.796875,0.140625,0.5,0.0012542435887467644,39.981425719134805,-9999.810837069166
209,0.890625,0.140625,0.5,0.001411825024833888,39.98123573174625,-9999.810136140919
210,0.984375,0.140625,0.5,0.001576007971274993,39.98099020401005,-9999.809412036351
211,1.078125,0.140625,0.5,0.0017453491863105022,39.98070124875334,-9999.80867695589
212,1.171875,0.140625,0.5,0.0019195856839743064,39.98040367305792,-9999.807951475077
213,1.265625,0.140625,0.5,0.002099732632313518,39.980155477028276,-9999.807261047126
214,1.359375,0.140625,0.5,0.0022878997844806063,39.980022058841,-9999.806629371993
215,1.453125,0.140625,0.5,0.0024868022904072163,39.98004606173239,-9999.806070461493
216,1.546875,0.234375,0.5,0.0023802805640536747,39.98073735499892,-9999.805029442337
217,1.640625,0.234375,0.5,0.002582913674986206,39.98092862321607,-9999.804558953592
218,1.734375,0.234375,0.5,0.002800468839856977,39.98114433905446,-9999.804089709696
219,1.828125,0.234375,0.5,0.003032117628592881,39.98134982562677,-9999.803597474958
220,1.921875,0.234375,0.5,0.003275182955490886,39.98152463761815,-9999.803062435965
221,2.015625,0.234375,0.5,0.003525297973668718,39.98166189612231,-9999.802472887615
222,2.109375,0.234375,0.5,0.0037767453256073,39.981763625295955,-9999.801825304521
223,2.203125,0.234375,0.5,0.004022975116573409,39.98183598013132,-9999.801121650096
224,2.296875,0.328125,0.5,0.0037563367926803926,39.98190645026301,-9999.79948403056
225,2.390625,0.328125,0.5,0.00395373041330743,39.98193000855044,-9999.798682749293
226,2.484375,0.328125,0.5,0.004126828184435713,39.98194503809198,-9999.797843994811
227,2.578125,0.328125,0.5,0.00427206059865333,39.98195406897085,-9999.796958969242
228,2.671875,0.328125,0.5,0.004388285210031195,39.9819590036236,-9999.796015268794
229,2.765625,0.328125,0.5,0.004476745250039822,39.98196126601988,-9999.794998470783
230,2.859375,0.328125,0.5,0.00454070935092588,39.9819619291024,-9999.793892902237
231,2.953125,0.328125,0.5,0.004584894297924935,39.98196178963012,-9999.792681264664
232,3.046875,0.421875,0.5,0.004003989300074156,39.98191010471687,-9999.790681438986
233,3.140625,0.421875,0.5,0.004009300845148521,39.981899409047884,-9999.789150570414
234,3.234375,0.421875,0.5,0.004011660276124513,39.981887900591396,-9999.787364602187
235,3.328125,0.421875,0.5,0.004011448935440117,39.98187461033551,-9999.785225576075
236,3.421875,0.421875,0.5,0.004003248109179627,39.981857084298134,-9999.782577576792
237,3.515625,0.421875,0.5,0.003974050195117801,39.98183000809116,-9999.77918667229
238,3.609375,0.421875,0.5,0.0039011293836349386,39.981782421087075,-9999.774752898888
239,3.703125,0.421875,0.5,0.0037498118553884936,39.98169280477043,-9999.76899984107
240,3.796875,0.515625,0.5,0.002806288314400573,39.981346328488726,-9999.755933748726
241,3.890625,0.515625,0.5,0.002310906831114489,39.981078140621605,-9999.746949960992
242,3.984375,0.515625,0.5,0.001744153091465057,39.98066724513291,-9999.737528690337
243,4.078125,0.515625,0.5,0.001180811698802944,39.98007972147625,-9999.729599095668
244,4.171875,0.515625,0.5,0.0007176190892270131,39.979298627031724,-9999.72518922668
245,4.265625,0.515625,0.5,0.00039583291591833807,39.978330065263215,-9999.729696282719
246,4.359375,0.515625,0.5,0.0001700969124061989,39.977110040235075,-9999.752856325267
247,4.453125,0.515625,0.5,0.00015040313318151924,40.00008404339063,-9999.760593280123
248,4.546875,0.609375,0.5,0.0,40.0,-10000.0
249,4.640625,0.609375,0.5,0.0,40.0,-10000.0
250,4.734375,0.609375,0.5,0.0,40.0,-10000.0
251,4.828125,0.609375,0.5,0.0001811426985565773,39.979720853312095,-9999.760937486206
252,4.921875,0.609375,0.5,0.0009548849821146818,39.98040065489402,-9999.700883562717
253,5.015625,0.609375,0.5,0.0019184402858095247,39.980865985588586,-9999.68334545188
254,5.109375,0.609375,0.5,0.00305277929387343,39.98126705074497,-9999.688994594359
255,5.203125,0.609375,0.5,0.004171276261229118,39.98160054651296,-9999.701622882141
256,5.296875,0.703125,0.5,0.004060701649169225,39.981689907737206,-9999.70343655946
257,5.390625,0.703125,0.5,0.005035449711806825,39.981869045961325,-9999.71818174219
258,5.484375,0.703125,0.5,0.0059459688734152345,39.982004521165145,-9999.73123721221
259,5.578125,0.703125,0.5,0.006754795633905665,39.98210114098863,-9999.741018666336
260,5.671875,0.703125,0.5,0.007410400657705394,39.98216989496693,-9999.747265517331
261,5.765625,0.703125,0.5,0.007897460926865671,39.98221771263004,-9999.750496370127
262,5.859375,0.703125,0.5,0.008234179019548987,39.98224684438067,-9999.751426887758
263,5.953125,0.703125,0.5,0.008448466103471972,39.98225683054258,-9999.750658735422
264,6.046875,0.796875,0.5,0.007693663315666802,39.98229561394294,-9999.749448773642
265,6.140625,0.796875,0.5,0.007833180691062125,39.98229347764075,-9999.747619864067
